week,price,prediction,posts,absolute_diff,market_change,prediction_change,error_general,market_weekly_change,prediction_weekly_change,error_weekly
261,148.26966857910156,138.68317095439693,41,9.586497624704634,0.0,0.0,0.0,0.0,0.0,0.0
262,145.88253784179688,137.48481153327265,37,8.397726308524227,-0.016099926304422526,-0.008640986594677273,0.007458939709745253,-0.016099926304422526,-0.008640986594677273,0.007458939709745253
263,144.84251403808594,136.65236483176767,37,8.190149206318267,-0.023114333321567013,-0.014643493573542865,0.008470839748024149,-0.00712918639267708,-0.006054826654823014,0.0010743597378540665
264,142.39593505859375,138.3077266169382,37,4.088208441655553,-0.03961520637900521,-0.002707209064192714,0.03690799731481249,-0.016891304295152364,0.012113670972386303,0.029004975267538667
265,141.08847045898438,139.90876928235284,37,1.1797011766315393,-0.04843335922266551,0.008837397641844517,0.05727075686451003,-0.009181895530033025,0.011575945209835898,0.020757840739868923
266,141.71249389648438,142.96521690780403,36,1.2527230113196595,-0.04422465326493226,0.030876464129992873,0.07510111739492513,0.0044229229749953875,0.021846004658099147,0.01742308168310376
267,138.56265258789062,146.58729648714996,34,8.024643899259331,-0.06546865643010637,0.056994121769483735,0.1224627781995901,-0.022226983817634247,0.0253353903675867,0.04756237418522095
268,137.423583984375,141.4194361233027,35,3.995852138927688,-0.07315106790665145,0.01973033317651443,0.09288140108316588,-0.008220603331717478,-0.03525448990254275,0.02703388657082527
269,140.47235107421875,140.1167650294514,35,0.3555860447673638,-0.05258875655153272,0.010337188464820044,0.06292594501635276,0.022185181039889,-0.009211400706728257,0.03139658174661726
270,140.2235565185547,140.09324328704295,35,0.13031323151173524,-0.05426674341188192,0.010167580701696653,0.06443432411357856,-0.0017711282950807277,-0.00016787243413370192,0.0016032558609470257
271,138.11387634277344,143.78364592505065,34,5.669769582277212,-0.0684954133482131,0.036777894070008726,0.10527330741822183,-0.015045119580190454,0.026342474136645373,0.04138759371683583
272,140.62161254882812,149.01911987530966,30,8.39750732648153,-0.05158206734773414,0.07452922261426723,0.12611128996200138,0.018157018486911074,0.03641216576875561,0.018255147281844537
273,140.9102020263672,148.12361302942136,31,7.213411003054176,-0.04963568491965782,0.06807200909855694,0.11770769401821476,0.0020522412757772593,-0.0060093419330190575,0.008061583208796318
274,141.12913513183594,149.78837233753467,31,8.65923720569873,-0.04815909764751491,0.08007605614086696,0.12823515378838188,0.0015537065614864645,0.011238986641398205,0.00968528007991174
275,140.96990966796875,155.5805657677749,23,14.610656099806164,-0.04923298865565621,0.12184171083695758,0.17107469949261378,-0.0011282253215712465,0.03866917932179714,0.03979740464336839
276,141.5072784423828,161.59990868714704,22,20.092630244764223,-0.045608722279641634,0.16524526786516727,0.2108539901448089,0.003811939552772259,0.03868955540601907,0.034877615853246814
277,132.85960388183594,159.10270250155594,21,26.24309861972,-0.10393268458035561,0.14723871257510796,0.25117139715546355,-0.061111164427262506,-0.015453017306003673,0.04565814712125883
278,129.7946014404297,159.26163207532286,21,29.467030634893177,-0.1246044947407127,0.14838470291173783,0.27298919765245055,-0.023069483513831892,0.0009989118429045655,0.02406839535673646
279,128.37158203125,151.8769518131813,21,23.505369781931307,-0.13420200327240883,0.09513613488923525,0.22933813816164408,-0.010963625554432586,-0.04636823173235453,0.03540460617792194
280,133.5561981201172,146.1691276930887,20,12.612929572971524,-0.09923452719619973,0.05397884031043236,0.1532133675066321,0.040387568703524085,-0.0375818980559578,0.07796946675948188
281,135.3800048828125,149.3324894645239,19,13.952484581711389,-0.08693392127879786,0.07678883051807898,0.16372275179687684,0.013655725367796297,0.021641791405345782,0.007986066037549484
282,133.72999572753906,148.4408039862068,19,14.710808258667726,-0.09806235483561235,0.07035917166199246,0.1684215264976048,-0.012187982684013911,-0.005971141856099127,0.006216840827914785
283,129.60000610351562,147.76964162120169,19,18.16963551768606,-0.125916936717409,0.06551963446085794,0.19143657117826696,-0.030883046107605217,-0.004521414240436661,0.026361631867168556
284,131.67999267578125,146.0130581403993,19,14.333065464618045,-0.11188853433276379,0.05285347267126339,0.1647420070040272,0.016049278351146633,-0.011887309609272001,0.027936587960418632
285,129.57000732421875,151.01168974015127,14,21.44168241593252,-0.12611926251731373,0.08889700675944537,0.2150162692767591,-0.016023583451721828,0.03423414085982313,0.05025772431154496
286,-1.0,149.93521235422858,14,150.93521235422858,-1.0067444677632533,0.08113487254723685,1.0878793403104903,-1.0077178354825413,-0.007128437459212607,1.0005893980233287
287,-1.0,152.6751815156492,11,153.6751815156492,-1.0067444677632533,0.10089191402937601,1.1076363817926294,-0.0,0.018274354092001545,0.018274354092001545
288,-1.0,149.6690022406629,7,150.6690022406629,-1.0067444677632533,0.07921531654246959,1.085959784305723,-0.0,-0.01969003242795006,0.01969003242795006
289,-1.0,147.55508704579495,5,148.55508704579495,-1.0067444677632533,0.06397255002422295,1.0707170177874763,-0.0,-0.014123934570425276,0.014123934570425276
290,-1.0,143.73824543927475,4,144.73824543927475,-1.0067444677632533,0.036450525684475994,1.0431949934477294,-0.0,-0.025867231573897625,0.025867231573897625
291,-1.0,144.8722329455623,4,145.8722329455623,-1.0067444677632533,0.04462734698502473,1.051371814748278,-0.0,0.007889253850441846,0.007889253850441846
292,-1.0,168.4741516557233,1,169.4741516557233,-1.0067444677632533,0.2148132357827505,1.221557703546004,-0.0,0.16291540642594862,0.16291540642594862
293,-1.0,0.0,0,1.0,-1.0067444677632533,-1.0,0.006744467763253326,-0.0,-1.0,1.0
294,-1.0,0.0,0,1.0,-1.0067444677632533,-1.0,0.006744467763253326,-0.0,0.0,0.0
295,-1.0,0.0,0,1.0,-1.0067444677632533,-1.0,0.006744467763253326,-0.0,0.0,0.0
296,-1.0,0.0,0,1.0,-1.0067444677632533,-1.0,0.006744467763253326,-0.0,0.0,0.0
297,-1.0,0.0,0,1.0,-1.0067444677632533,-1.0,0.006744467763253326,-0.0,0.0,0.0
298,-1.0,0.0,0,1.0,-1.0067444677632533,-1.0,0.006744467763253326,-0.0,0.0,0.0
299,-1.0,0.0,0,1.0,-1.0067444677632533,-1.0,0.006744467763253326,-0.0,0.0,0.0
300,-1.0,0.0,0,1.0,-1.0067444677632533,-1.0,0.006744467763253326,-0.0,0.0,0.0
301,-1.0,0.0,0,1.0,-1.0067444677632533,-1.0,0.006744467763253326,-0.0,0.0,0.0
302,-1.0,0.0,0,1.0,-1.0067444677632533,-1.0,0.006744467763253326,-0.0,0.0,0.0
303,-1.0,0.0,0,1.0,-1.0067444677632533,-1.0,0.006744467763253326,-0.0,0.0,0.0
304,-1.0,0.0,0,1.0,-1.0067444677632533,-1.0,0.006744467763253326,-0.0,0.0,0.0
305,-1.0,0.0,0,1.0,-1.0067444677632533,-1.0,0.006744467763253326,-0.0,0.0,0.0
306,-1.0,0.0,0,1.0,-1.0067444677632533,-1.0,0.006744467763253326,-0.0,0.0,0.0
307,-1.0,0.0,0,1.0,-1.0067444677632533,-1.0,0.006744467763253326,-0.0,0.0,0.0
308,-1.0,0.0,0,1.0,-1.0067444677632533,-1.0,0.006744467763253326,-0.0,0.0,0.0
309,-1.0,0.0,0,1.0,-1.0067444677632533,-1.0,0.006744467763253326,-0.0,0.0,0.0
310,-1.0,0.0,0,1.0,-1.0067444677632533,-1.0,0.006744467763253326,-0.0,0.0,0.0
311,-1.0,0.0,0,1.0,-1.0067444677632533,-1.0,0.006744467763253326,-0.0,0.0,0.0
312,-1.0,0.0,0,1.0,-1.0067444677632533,-1.0,0.006744467763253326,-0.0,0.0,0.0
313,-1.0,0.0,0,1.0,-1.0067444677632533,-1.0,0.006744467763253326,-0.0,0.0,0.0
314,-1.0,0.0,0,1.0,-1.0067444677632533,-1.0,0.006744467763253326,-0.0,0.0,0.0
315,-1.0,0.0,0,1.0,-1.0067444677632533,-1.0,0.006744467763253326,-0.0,0.0,0.0
316,-1.0,0.0,0,1.0,-1.0067444677632533,-1.0,0.006744467763253326,-0.0,0.0,0.0
317,-1.0,0.0,0,1.0,-1.0067444677632533,-1.0,0.006744467763253326,-0.0,0.0,0.0
318,-1.0,0.0,0,1.0,-1.0067444677632533,-1.0,0.006744467763253326,-0.0,0.0,0.0
319,-1.0,0.0,0,1.0,-1.0067444677632533,-1.0,0.006744467763253326,-0.0,0.0,0.0
320,-1.0,0.0,0,1.0,-1.0067444677632533,-1.0,0.006744467763253326,-0.0,0.0,0.0
321,-1.0,0.0,0,1.0,-1.0067444677632533,-1.0,0.006744467763253326,-0.0,0.0,0.0
322,-1.0,0.0,0,1.0,-1.0067444677632533,-1.0,0.006744467763253326,-0.0,0.0,0.0
323,-1.0,0.0,0,1.0,-1.0067444677632533,-1.0,0.006744467763253326,-0.0,0.0,0.0
324,-1.0,0.0,0,1.0,-1.0067444677632533,-1.0,0.006744467763253326,-0.0,0.0,0.0
325,-1.0,0.0,0,1.0,-1.0067444677632533,-1.0,0.006744467763253326,-0.0,0.0,0.0
326,-1.0,0.0,0,1.0,-1.0067444677632533,-1.0,0.006744467763253326,-0.0,0.0,0.0
327,-1.0,0.0,0,1.0,-1.0067444677632533,-1.0,0.006744467763253326,-0.0,0.0,0.0
328,-1.0,0.0,0,1.0,-1.0067444677632533,-1.0,0.006744467763253326,-0.0,0.0,0.0
329,-1.0,0.0,0,1.0,-1.0067444677632533,-1.0,0.006744467763253326,-0.0,0.0,0.0
330,-1.0,0.0,0,1.0,-1.0067444677632533,-1.0,0.006744467763253326,-0.0,0.0,0.0
331,-1.0,0.0,0,1.0,-1.0067444677632533,-1.0,0.006744467763253326,-0.0,0.0,0.0
332,-1.0,0.0,0,1.0,-1.0067444677632533,-1.0,0.006744467763253326,-0.0,0.0,0.0
333,-1.0,0.0,0,1.0,-1.0067444677632533,-1.0,0.006744467763253326,-0.0,0.0,0.0
334,-1.0,0.0,0,1.0,-1.0067444677632533,-1.0,0.006744467763253326,-0.0,0.0,0.0
335,-1.0,0.0,0,1.0,-1.0067444677632533,-1.0,0.006744467763253326,-0.0,0.0,0.0
336,-1.0,0.0,0,1.0,-1.0067444677632533,-1.0,0.006744467763253326,-0.0,0.0,0.0
337,-1.0,0.0,0,1.0,-1.0067444677632533,-1.0,0.006744467763253326,-0.0,0.0,0.0
338,-1.0,0.0,0,1.0,-1.0067444677632533,-1.0,0.006744467763253326,-0.0,0.0,0.0
339,-1.0,0.0,0,1.0,-1.0067444677632533,-1.0,0.006744467763253326,-0.0,0.0,0.0
340,-1.0,0.0,0,1.0,-1.0067444677632533,-1.0,0.006744467763253326,-0.0,0.0,0.0
341,-1.0,0.0,0,1.0,-1.0067444677632533,-1.0,0.006744467763253326,-0.0,0.0,0.0
342,-1.0,0.0,0,1.0,-1.0067444677632533,-1.0,0.006744467763253326,-0.0,0.0,0.0
343,-1.0,0.0,0,1.0,-1.0067444677632533,-1.0,0.006744467763253326,-0.0,0.0,0.0
344,-1.0,0.0,0,1.0,-1.0067444677632533,-1.0,0.006744467763253326,-0.0,0.0,0.0
345,-1.0,0.0,0,1.0,-1.0067444677632533,-1.0,0.006744467763253326,-0.0,0.0,0.0
346,-1.0,0.0,0,1.0,-1.0067444677632533,-1.0,0.006744467763253326,-0.0,0.0,0.0
347,-1.0,0.0,0,1.0,-1.0067444677632533,-1.0,0.006744467763253326,-0.0,0.0,0.0
348,-1.0,0.0,0,1.0,-1.0067444677632533,-1.0,0.006744467763253326,-0.0,0.0,0.0
349,-1.0,0.0,0,1.0,-1.0067444677632533,-1.0,0.006744467763253326,-0.0,0.0,0.0
